Date,Open,High,Low,Close,Volume,Dividends,Stock Splits
2023-06-01 00:00:00-04:00,111.04058136563675,111.72953782989164,110.27288487430637,111.15869140625,170700,0.0,0.0
2023-06-02 00:00:00-04:00,112.21182323882013,112.94014977097115,111.86734498098268,112.35945892333984,353000,0.0,0.0
2023-06-05 00:00:00-04:00,112.00512074436296,112.42833897643472,111.09962550916774,111.27678680419922,237400,0.0,0.0
2023-06-06 00:00:00-04:00,111.25710406829387,112.8515557022963,111.25710406829387,112.51691436767578,266900,0.0,0.0
2023-06-07 00:00:00-04:00,112.55629471813873,113.8751563998795,112.26102336688152,113.58973693847656,264100,0.0,0.0
2023-06-08 00:00:00-04:00,113.73736399626549,114.16058225744177,112.97951188205148,113.38304138183594,270500,0.0,0.0
2023-06-09 00:00:00-04:00,113.24525588011997,113.74721419441087,112.5858250119524,112.99919891357422,295000,0.0,0.0
2023-06-12 00:00:00-04:00,112.87124463286419,113.76688802796502,112.49724077136943,113.5700454711914,353000,0.0,0.0
2023-06-13 00:00:00-04:00,113.8849971980205,114.55427239862837,112.94998379689078,113.39288330078125,340600,0.0,0.0
2023-06-14 00:00:00-04:00,113.7865731993539,114.13105141737128,112.54644410542936,113.34367370605469,225200,0.0,0.0
2023-06-15 00:00:00-04:00,113.1862004143606,114.56412087773921,113.13698601925113,114.21964263916016,362600,0.0,0.0
2023-06-16 00:00:00-04:00,113.82593506063009,115.36132787045638,113.54050812640777,115.30227661132812,975300,0.0,0.0
2023-06-20 00:00:00-04:00,115.03654690352796,115.10544255176639,113.88500213623047,113.88500213623047,297000,0.0,0.0
2023-06-21 00:00:00-04:00,113.32398772728205,113.44209776595662,111.63111471825721,111.82796478271484,317800,0.0,0.0
2023-06-22 00:00:00-04:00,112.1527537698123,112.26101942753665,110.57799080617937,112.25118255615234,266200,0.0,0.0
2023-06-23 00:00:00-04:00,111.11931831297304,111.93622917585,110.30240745009608,111.05042266845703,366000,0.0,0.0
2023-06-26 00:00:00-04:00,111.27678696846256,112.56613042661897,111.27678696846256,111.818115234375,142300,0.0,0.0
2023-06-27 00:00:00-04:00,112.03465187552936,113.00903529150747,111.44411669945362,112.91061401367188,218300,0.0,0.0
2023-06-28 00:00:00-04:00,112.99919274299846,112.99919274299846,110.70594764690746,111.72953796386719,204800,0.0,0.0
2023-06-29 00:00:00-04:00,111.64095950098167,113.5405194527344,110.774841741434,112.96966552734375,225900,0.0,0.0
2023-06-30 00:00:00-04:00,113.40272574343274,114.44600478485246,113.02871438212225,114.03263092041016,279800,0.0,0.0
2023-07-03 00:00:00-04:00,113.58973718437622,115.1743370784289,113.58973718437622,114.70191192626953,85700,0.0,0.0
2023-07-05 00:00:00-04:00,113.79642224078088,113.79642224078088,110.98153009986127,111.15869140625,384200,0.0,0.0
2023-07-06 00:00:00-04:00,110.47956701711095,111.19805659212263,109.86934309736215,110.69609832763672,277700,0.0,0.0
2023-07-07 00:00:00-04:00,110.87326591514261,113.51099678477031,110.81420713951903,111.99528503417969,333400,0.0,0.0
2023-07-10 00:00:00-04:00,111.52284299665604,113.48146160894447,111.2275791796161,112.66455078125,248000,0.0,0.0
2023-07-11 00:00:00-04:00,112.50707825368903,113.73736301285915,111.58190922095542,113.68815612792969,226700,0.0,0.0
2023-07-12 00:00:00-04:00,114.7412683142777,115.69597039509571,113.94403876245794,115.02669525146484,199400,0.0,0.0
2023-07-13 00:00:00-04:00,115.00700208467471,115.51880467969313,114.7215751584262,115.16448211669922,190200,0.0,0.0
2023-07-14 00:00:00-04:00,115.8337814248175,116.96563747785451,114.85939041856676,116.48336791992188,271600,0.0,0.0
2023-07-17 00:00:00-04:00,116.53257652733603,117.65459565236354,115.31213612116025,117.37901306152344,234200,0.0,0.0
2023-07-18 00:00:00-04:00,117.13294761899954,118.47149797102597,116.8278319077614,117.20184326171875,189100,0.0,0.0
2023-07-19 00:00:00-04:00,116.87704642445874,117.5266403499886,116.44398380743884,117.23136901855469,247200,0.0,0.0
2023-07-20 00:00:00-04:00,117.89080600548584,118.32386864524544,116.98531822149965,117.44790649414062,175800,0.0,0.0
2023-07-21 00:00:00-04:00,117.76285382018327,118.15654642878503,116.9951573633939,117.9498519897461,184300,0.0,0.0
2023-07-24 00:00:00-04:00,118.1270179664938,118.58960623674166,116.83768194359526,117.84159851074219,163400,0.0,0.0
2023-07-25 00:00:00-04:00,117.79238291425284,119.2096733432557,117.41837905507138,118.65850067138672,250700,0.0,0.0
2023-07-26 00:00:00-04:00,118.6683754039552,118.90539401019656,117.34500582184585,118.46097564697266,306900,0.41,0.0
2023-07-27 00:00:00-04:00,118.56961892528297,119.28068232775259,117.26600519898405,117.66104125976562,407800,0.0,0.0
2023-07-28 00:00:00-04:00,120.96945895904898,125.41359786679186,120.36703063766892,122.24344635009766,513000,0.0,0.0
2023-07-31 00:00:00-04:00,121.98665774922921,122.39157175315519,119.33005569775486,119.95223236083984,746500,0.0,0.0
2023-08-01 00:00:00-04:00,119.73497388299393,120.9793348656095,119.25105865324366,120.92008209228516,365300,0.0,0.0
2023-08-02 00:00:00-04:00,119.93249248411743,120.81144376017149,118.49061727244803,120.7225570678711,329200,0.0,0.0
2023-08-03 00:00:00-04:00,120.01149580237812,121.20648197480745,119.22143120457474,119.31031036376953,195900,0.0,0.0
2023-08-04 00:00:00-04:00,119.12267712389995,120.6139271985214,118.9844156273746,119.14242553710938,116500,0.0,0.0
2023-08-07 00:00:00-04:00,119.23130919158147,120.14976484346157,119.01403897838826,119.78435516357422,140300,0.0,0.0
2023-08-08 00:00:00-04:00,118.5893795522249,119.8929933299676,118.2239698630119,119.61647033691406,270100,0.0,0.0
2023-08-09 00:00:00-04:00,119.61647200434685,121.85828990186978,119.02391411418746,120.31765747070312,287500,0.0,0.0
2023-08-10 00:00:00-04:00,120.28802219328414,122.03604674294475,120.28802219328414,120.71268463134766,216000,0.0,0.0
2023-08-11 00:00:00-04:00,120.00161584456349,121.69038754748372,120.00161584456349,121.08795928955078,226500,0.0,0.0
2023-08-14 00:00:00-04:00,120.51516716685944,121.46324920654297,120.0707563008062,121.46324920654297,145700,0.0,0.0
2023-08-15 00:00:00-04:00,121.10770699869725,121.40398590683355,120.4657819222113,120.57440948486328,249000,0.0,0.0
2023-08-16 00:00:00-04:00,120.2188938240353,121.63114265436012,119.98186766693192,120.03125,291100,0.0,0.0
2023-08-17 00:00:00-04:00,120.44603221834866,121.13734719493067,120.11025647076661,120.1300048828125,186600,0.0,0.0
2023-08-18 00:00:00-04:00,119.87322794714662,121.88790499684897,119.87322794714662,121.759521484375,443100,0.0,0.0
2023-08-21 00:00:00-04:00,121.62126961550078,122.91500541976626,121.53238291930896,122.24344635009766,358800,0.0,0.0
2023-08-22 00:00:00-04:00,122.33232941104968,124.14948476045629,121.23610791027362,121.42374420166016,429600,0.0,0.0
2023-08-23 00:00:00-04:00,121.53237867972514,122.0261718744709,120.79168888760651,121.85828399658203,305000,0.0,0.0
2023-08-24 00:00:00-04:00,121.9570379206128,123.90258426228483,121.06820868651315,123.55693054199219,278400,0.0,0.0
2023-08-25 00:00:00-04:00,124.01121790246503,126.09502570767782,123.42854557151315,125.9567642211914,493000,0.0,0.0
2023-08-28 00:00:00-04:00,126.04565577068475,127.97145386700551,126.04565577068475,127.8035659790039,331900,0.0,0.0
2023-08-29 00:00:00-04:00,128.18872591048398,130.32191628720045,127.79368228366229,130.18365478515625,472400,0.0,0.0
2023-08-30 00:00:00-04:00,130.72680729651046,131.60575859209357,130.06512621506002,131.2403564453125,298900,0.0,0.0
2023-08-31 00:00:00-04:00,131.6255226879922,132.06993358282168,130.598439396178,130.91445922851562,305800,0.0,0.0
2023-09-01 00:00:00-04:00,131.44776235266403,132.1291843440087,130.87496040408038,130.9045867919922,252000,0.0,0.0
2023-09-05 00:00:00-04:00,130.04536208782784,130.34164100386147,125.77899693280703,125.98638916015625,325300,0.0,0.0
2023-09-06 00:00:00-04:00,126.2036716235839,126.42093431047563,124.63340527152326,124.84080505371094,291100,0.0,0.0
2023-09-07 00:00:00-04:00,124.72228867085187,125.59136199949779,123.58656279197943,123.8038330078125,328600,0.0,0.0
2023-09-08 00:00:00-04:00,123.9519697355317,125.09756602820279,123.56681164677548,123.75444793701172,238800,0.0,0.0
2023-09-11 00:00:00-04:00,125.41358603394117,126.34191959595827,124.84079168845953,125.43334197998047,333500,0.0,0.0
2023-09-12 00:00:00-04:00,124.54452033380151,125.70987257621356,123.86308331311974,124.95930480957031,258000,0.0,0.0
2023-09-13 00:00:00-04:00,124.21861959079048,125.01856218561413,123.55693849298113,123.81371307373047,279300,0.0,0.0
2023-09-14 00:00:00-04:00,124.44575738514996,125.71974467376837,124.44575738514996,125.18644714355469,217900,0.0,0.0
2023-09-15 00:00:00-04:00,124.91979092062135,125.62097630036719,123.61617728572892,124.36674499511719,589200,0.0,0.0
2023-09-18 00:00:00-04:00,124.79141618580722,124.79141618580722,123.36928938059903,124.08035278320312,175100,0.0,0.0
2023-09-19 00:00:00-04:00,124.12973558685658,124.12973558685658,122.51996495133508,123.75444793701172,218600,0.0,0.0
2023-09-20 00:00:00-04:00,124.2778720410514,124.53464662113076,123.01376262325526,123.08289337158203,206200,0.0,0.0
2023-09-21 00:00:00-04:00,122.78661236088453,122.80636077256759,120.67317818056219,120.70280456542969,335700,0.0,0.0
2023-09-22 00:00:00-04:00,120.81145074589055,121.37437471405605,120.59418052402202,121.1571044921875,341200,0.0,0.0
2023-09-25 00:00:00-04:00,120.47565856085166,122.58909277925069,119.96211696629554,122.50021362304688,258800,0.0,0.0
2023-09-26 00:00:00-04:00,121.9965430836107,122.67798009002733,121.7002716934149,122.065673828125,547000,0.0,0.0
2023-09-27 00:00:00-04:00,122.50021294475796,122.90511943414342,121.34473871239011,121.98666381835938,362400,0.0,0.0
2023-09-28 00:00:00-04:00,122.32244570360545,124.08034819803535,121.72989540156074,123.91246032714844,219300,0.0,0.0
2023-09-29 00:00:00-04:00,124.91979782064467,125.255581104452,123.24090400566617,123.48780059814453,330900,0.0,0.0
2023-10-02 00:00:00-04:00,122.98412392591321,123.92233545607893,122.45082640590742,123.49767303466797,244100,0.0,0.0
2023-10-03 00:00:00-04:00,122.48045243533764,123.75443969588012,120.96944656704106,121.34473419189453,236300,0.0,0.0
2023-10-04 00:00:00-04:00,122.01630713333608,123.11252867963672,120.81145047634355,122.6878662109375,208200,0.0,0.0
2023-10-05 00:00:00-04:00,122.42120601611467,123.37916600443847,121.27560974031857,122.21381378173828,466700,0.0,0.0
2023-10-06 00:00:00-04:00,122.07556001765633,125.11732805037909,121.85828979607805,124.84080505371094,491700,0.0,0.0
2023-10-09 00:00:00-04:00,124.25812018823046,125.64074265118,124.1297366690878,125.36421966552734,275700,0.0,0.0
2023-10-10 00:00:00-04:00,125.66049234667719,127.01348843707416,124.93955848882109,124.96918487548828,322000,0.0,0.0
2023-10-11 00:00:00-04:00,125.94689178466797,126.11477966354109,125.07781846930752,125.94689178466797,212900,0.0,0.0
2023-10-12 00:00:00-04:00,125.64074139674088,125.81850724784076,123.50755118354245,123.86308288574219,189300,0.0,0.0
2023-10-13 00:00:00-04:00,124.43587638406555,125.09755741048166,123.84332609869762,124.40625,324900,0.0,0.0
2023-10-16 00:00:00-04:00,125.77899468958762,125.84812543080444,124.603764554216,125.1370620727539,275200,0.0,0.0
2023-10-17 00:00:00-04:00,124.44576116711923,126.74683169346599,124.44576116711923,125.89751434326172,314400,0.0,0.0
2023-10-18 00:00:00-04:00,125.29509397275628,126.08515860153223,124.7124140568982,125.20620727539062,287300,0.0,0.0
2023-10-19 00:00:00-04:00,124.51489659604607,125.88764110554062,123.83345956087024,124.16924285888672,443900,0.0,0.0
2023-10-20 00:00:00-04:00,124.36674900953408,124.90992451439136,120.4164036205673,120.70280456542969,446500,0.0,0.0
2023-10-23 00:00:00-04:00,120.2090152039503,121.63114200017718,119.70534404117227,119.99174499511719,379000,0.0,0.0
2023-10-24 00:00:00-04:00,120.61392032551403,122.23356136510647,120.20901383295893,121.80889892578125,312100,0.0,0.0
2023-10-25 00:00:00-04:00,121.31346345451273,122.65115021548397,120.77838723816105,121.25401306152344,431300,0.41,0.0
2023-10-26 00:00:00-04:00,120.15413594373325,124.24646847459474,120.15413594373325,122.3043441772461,576000,0.0,0.0
2023-10-27 00:00:00-04:00,122.34398423714258,122.71060508704517,119.26234609112663,120.06495666503906,364000,0.0,0.0
2023-10-30 00:00:00-04:00,120.80811947359729,121.20447308952367,119.74787789788864,121.05583953857422,283100,0.0,0.0
2023-10-31 00:00:00-04:00,121.39273918379506,121.7692709499396,120.71894032450426,121.15492248535156,422900,0.0,0.0
2023-11-01 00:00:00-04:00,120.99638507177747,122.30434666846294,120.50094495849031,121.80890655517578,360500,0.0,0.0
2023-11-02 00:00:00-04:00,122.59170266824313,123.15650409420034,121.85845341836203,122.4529800415039,384300,0.0,0.0
2023-11-03 00:00:00-04:00,123.29521733295434,124.82117367071217,123.29521733295434,124.20682525634766,278000,0.0,0.0
2023-11-06 00:00:00-05:00,124.12755873754581,124.58337028001684,123.6123043623145,124.04829406738281,173500,0.0,0.0
2023-11-07 00:00:00-05:00,123.48350010940814,123.85012096550467,123.03759945873301,123.41413879394531,205000,0.0,0.0
2023-11-08 00:00:00-05:00,123.74111854699449,124.34555608302419,123.27541119611726,123.97893524169922,175800,0.0,0.0
2023-11-09 00:00:00-05:00,124.54373197191588,124.54373197191588,122.93850336228054,123.25558471679688,118600,0.0,0.0
2023-11-10 00:00:00-05:00,123.10695737658006,124.64282475348995,122.76015080883737,124.5734634399414,195600,0.0,0.0
2023-11-13 00:00:00-05:00,124.24647525574397,124.33565841029097,123.23578071638222,123.39431762695312,183100,0.0,0.0
2023-11-14 00:00:00-05:00,124.80136230054954,126.69394717395963,124.167199556326,126.68403625488281,267400,0.0,0.0
2023-11-15 00:00:00-05:00,126.65430840223222,127.62537433636331,126.1885934929967,126.5453109741211,388600,0.0,0.0
2023-11-16 00:00:00-05:00,126.48585866350204,127.44700610438075,125.68324056322871,126.38677215576172,217000,0.0,0.0
2023-11-17 00:00:00-05:00,127.3875574753033,127.90281941839201,126.44622429901409,126.7633056640625,162700,0.0,0.0
2023-11-20 00:00:00-05:00,126.28767858691373,126.48585916299294,125.27698410826565,126.15886688232422,213900,0.0,0.0
2023-11-21 00:00:00-05:00,126.29759149313176,127.12993480613054,126.0399605200826,126.74349212646484,160600,0.0,0.0
2023-11-22 00:00:00-05:00,127.27855266714958,128.02171278212276,126.1984969287667,127.39746856689453,174800,0.0,0.0
2023-11-24 00:00:00-05:00,127.7938312351116,127.7938312351116,126.93177022767645,127.35784149169922,65900,0.0,0.0
2023-11-27 00:00:00-05:00,126.65430305338754,127.12992886140553,125.69314807871683,125.84178161621094,367500,0.0,0.0
2023-11-28 00:00:00-05:00,125.84178515076026,125.85169606948911,124.3455539349752,124.46446228027344,218000,0.0,0.0
2023-11-29 00:00:00-05:00,124.4941883818307,125.24725945456316,123.78075342448582,124.22665405273438,331800,0.0,0.0
2023-11-30 00:00:00-05:00,124.30591817751716,125.97059721740223,123.6717554537339,125.7327880859375,301000,0.0,0.0
2023-12-01 00:00:00-05:00,125.26707605739931,127.36773729322012,125.26707605739931,126.9317626953125,218300,0.0,0.0
2023-12-04 00:00:00-05:00,126.28767770485963,127.70464424452732,125.73278721534541,127.24883270263672,192000,0.0,0.0
2023-12-05 00:00:00-05:00,127.08038718436097,127.5163768967662,124.73199836047291,124.84099578857422,178000,0.0,0.0
2023-12-06 00:00:00-05:00,125.23734357387575,126.13904815363233,124.73199257247575,125.217529296875,179500,0.0,0.0
2023-12-07 00:00:00-05:00,125.08871336256288,125.95078185142076,124.84099331448122,125.33643341064453,254000,0.0,0.0
2023-12-08 00:00:00-05:00,125.20762279659192,126.33722562088752,124.47437356463878,126.15886688232422,265800,0.0,0.0
2023-12-11 00:00:00-05:00,126.0994228640728,126.51559075515358,125.18780728765576,126.4065933227539,338000,0.0,0.0
2023-12-12 00:00:00-05:00,126.48586115253305,126.93176178586303,125.52470613292445,126.31741333007812,210300,0.0,0.0
2023-12-13 00:00:00-05:00,126.02014494465774,127.81364325880723,126.02014494465774,127.41728210449219,425000,0.0,0.0
2023-12-14 00:00:00-05:00,127.90282302428803,128.82433438884485,125.72288196328321,126.23814392089844,412900,0.0,0.0
2023-12-15 00:00:00-05:00,126.0003317907756,127.40737988197283,124.82118191557237,124.83109283447266,713000,0.0,0.0
2023-12-18 00:00:00-05:00,125.55443132896782,126.04987143723136,124.73199893489449,125.8913345336914,240500,0.0,0.0
2023-12-19 00:00:00-05:00,126.54531011590373,126.96148554760379,124.8806310685516,125.07881164550781,659100,0.0,0.0
2023-12-20 00:00:00-05:00,124.87072064592883,125.78233618391774,124.31583014787857,124.4248275756836,346400,0.0,0.0
2023-12-21 00:00:00-05:00,125.08871109146551,125.08871109146551,123.71138825392332,124.76172637939453,421900,0.0,0.0
2023-12-22 00:00:00-05:00,125.2472656214041,125.88142837919824,124.96982035984621,125.11844635009766,312200,0.0,0.0
2023-12-26 00:00:00-05:00,124.98963506025378,125.71298097445533,124.44464789477202,124.68246459960938,274700,0.0,0.0
2023-12-27 00:00:00-05:00,124.96981738473335,125.3166239534244,123.88975400244838,124.1374740600586,283100,0.0,0.0
2023-12-28 00:00:00-05:00,123.84021734546606,124.6527388505282,123.2655049843738,124.0582046508789,343600,0.0,0.0
2023-12-29 00:00:00-05:00,124.04828865300915,124.21673646450019,122.43314916690221,122.49260711669922,313500,0.0,0.0
2024-01-02 00:00:00-05:00,121.49181931576402,122.96822866528554,121.17473796097116,121.75935363769531,313100,0.0,0.0
2024-01-03 00:00:00-05:00,124.00865191613967,126.09940963121507,122.02689162202577,124.21673583984375,531700,0.0,0.0
2024-01-04 00:00:00-05:00,124.03838705458976,124.77163630544489,122.99795979284728,123.08714294433594,353300,0.0,0.0
2024-01-05 00:00:00-05:00,122.65115389430404,123.2357771622261,121.86835760392961,123.06732177734375,423000,0.0,0.0
2024-01-08 00:00:00-05:00,122.93850476880799,124.01856810611528,121.25401147113331,123.21595001220703,352400,0.0,0.0
2024-01-09 00:00:00-05:00,122.58178500171026,123.50330386279067,121.84853579219097,123.49339294433594,250300,0.0,0.0
2024-01-10 00:00:00-05:00,123.32494819850275,124.27619227880237,123.0970499870832,124.04829406738281,279600,0.0,0.0
2024-01-11 00:00:00-05:00,124.23656613321232,125.81206970125302,123.80058395297445,125.6832504272461,323100,0.0,0.0
2024-01-12 00:00:00-05:00,126.72366164940847,126.80293387568332,124.77162654632978,125.2769775390625,231700,0.0,0.0
2024-01-16 00:00:00-05:00,124.73199976684852,125.6634295957377,124.36537892257047,125.65351867675781,257500,0.0,0.0
2024-01-17 00:00:00-05:00,124.79145441532165,126.10931933172368,124.74190738155083,125.53461456298828,336900,0.0,0.0
2024-01-18 00:00:00-05:00,126.15887092295051,128.8243336081958,125.158079771191,127.96227264404297,444200,0.0,0.0
2024-01-19 00:00:00-05:00,128.52707617893543,130.26111651253362,127.36773305062522,129.6071319580078,418000,0.0,0.0
2024-01-22 00:00:00-05:00,129.70619709932691,130.6079016055319,129.36930149908443,129.99356079101562,266200,0.0,0.0
2024-01-23 00:00:00-05:00,130.59800612846414,130.6475531596379,129.14141110581573,130.6277313232422,217800,0.0,0.0
2024-01-24 00:00:00-05:00,130.91508662461308,131.08353444353526,129.3494941009674,129.58731079101562,294400,0.0,0.0
2024-01-25 00:00:00-05:00,130.8259096267855,131.17272373941682,129.19096336925315,130.0530242919922,332300,0.0,0.0
2024-01-26 00:00:00-05:00,130.4790947888882,131.3807993810122,130.201649548178,130.49891662597656,219900,0.0,0.0
2024-01-29 00:00:00-05:00,129.85484638279357,131.38079515764656,129.29995591921067,131.0438995361328,187800,0.0,0.0
2024-01-30 00:00:00-05:00,130.82590469406364,131.87623523150717,130.42955868282763,131.0438995361328,228400,0.0,0.0
2024-01-31 00:00:00-05:00,131.57070379803326,131.96829757325693,128.3800952726163,129.0957489013672,537500,0.41,0.0
2024-02-01 00:00:00-05:00,129.6722385652945,130.31830754638668,128.8273651284965,129.7119903564453,298800,0.0,0.0
2024-02-02 00:00:00-05:00,129.17526857676506,129.92073984813763,127.912932977245,129.31442260742188,344800,0.0,0.0
2024-02-05 00:00:00-05:00,128.350288272064,130.65627169285793,127.27680773997525,129.86109924316406,319500,0.0,0.0
2024-02-06 00:00:00-05:00,129.69212681251796,130.60656981605155,128.51925921015518,130.3382110595703,369700,0.0,0.0
2024-02-07 00:00:00-05:00,130.61652116184445,131.6204170997419,128.58883063713165,131.00416564941406,393000,0.0,0.0
2024-02-08 00:00:00-05:00,130.84512246150092,134.02579698680105,130.74572022113273,131.3222198486328,620700,0.0,0.0
2024-02-09 00:00:00-05:00,131.31228212274573,138.3694163308354,130.71589903004866,138.1209259033203,650900,0.0,0.0
2024-02-12 00:00:00-05:00,138.31971163727175,139.62179901713546,136.67966575806614,136.77906799316406,491300,0.0,0.0
2024-02-13 00:00:00-05:00,135.8646430991694,136.50077805494678,134.16496171993805,135.10922241210938,275900,0.0,0.0
2024-02-14 00:00:00-05:00,135.43722697807505,136.62999324999794,134.35381227550982,136.34173583984375,335000,0.0,0.0
2024-02-15 00:00:00-05:00,136.34173759277547,136.97787253487493,133.7574460259073,134.22459411621094,471400,0.0,0.0
2024-02-16 00:00:00-05:00,134.55258039502934,137.16670432350853,134.22457123860548,136.6697235107422,453900,0.0,0.0
2024-02-20 00:00:00-05:00,136.31190648086599,139.2937915710118,136.1230513318258,138.8465118408203,373000,0.0,0.0
2024-02-21 00:00:00-05:00,138.2402048185684,139.2639842285359,138.15075189924767,139.15464782714844,276300,0.0,0.0
2024-02-22 00:00:00-05:00,139.62180669359628,141.56002905135654,139.22422806464894,140.6157684326172,295700,0.0,0.0
2024-02-23 00:00:00-05:00,141.11275650741206,141.19227527059232,139.75103370875203,140.50643920898438,190300,0.0,0.0
2024-02-26 00:00:00-05:00,140.64558720265816,141.20220335432228,139.94981701307802,141.06304931640625,199200,0.0,0.0
2024-02-27 00:00:00-05:00,141.0630321201778,141.3214566829037,138.95583832671088,139.46275329589844,244600,0.0,0.0
2024-02-28 00:00:00-05:00,138.80674371680817,140.38715432800137,138.48868386318273,139.56216430664062,189600,0.0,0.0
2024-02-29 00:00:00-05:00,139.78084912297825,140.77481089692157,138.98567667049298,139.61187744140625,250600,0.0,0.0
2024-03-01 00:00:00-05:00,139.03535835007537,139.9398519112248,138.71728334689908,139.44287109375,151400,0.0,0.0
2024-03-04 00:00:00-05:00,139.84047807822355,141.2618360706857,139.71125820012614,141.10281372070312,260300,0.0,0.0
2024-03-05 00:00:00-05:00,141.4109334064623,142.34525981857828,140.88413492586957,141.659423828125,190200,0.0,0.0
2024-03-06 00:00:00-05:00,142.0669465168181,142.77266603696359,141.61966675991172,142.20611572265625,184000,0.0,0.0
2024-03-07 00:00:00-05:00,143.62746210830588,144.2635969739534,142.9714437624861,143.77655029296875,250100,0.0,0.0
2024-03-08 00:00:00-05:00,143.8362110086618,144.1940378440662,142.10671210976503,142.22598266601562,185200,0.0,0.0
2024-03-11 00:00:00-04:00,141.92778348551363,142.5142324111025,141.12267694076073,141.8780975341797,226700,0.0,0.0
2024-03-12 00:00:00-04:00,141.9377390752515,141.98744019543142,140.62570230243384,141.5500946044922,242200,0.0,0.0
2024-03-13 00:00:00-04:00,142.13651827217242,142.13651827217242,140.07901034306508,140.30763244628906,336800,0.0,0.0
2024-03-14 00:00:00-04:00,140.50643671723708,140.764861318,139.512474945091,140.0790252685547,235200,0.0,0.0
2024-03-15 00:00:00-04:00,139.1943954029071,141.5500950401431,138.89621901421492,140.1486053466797,599500,0.0,0.0
2024-03-18 00:00:00-04:00,140.07901208363702,140.44678821803825,138.09108872645788,138.41909790039062,299700,0.0,0.0
2024-03-19 00:00:00-04:00,138.04140174078037,139.47270897388134,138.04140174078037,138.66758728027344,253000,0.0,0.0
2024-03-20 00:00:00-04:00,138.78687356495124,139.22421912871434,138.29982688409657,139.12481689453125,220000,0.0,0.0
2024-03-21 00:00:00-04:00,139.46277540270626,140.7449945966228,138.45887946146368,140.2877655029297,255800,0.0,0.0
2024-03-22 00:00:00-04:00,141.15249321500494,141.5898387824128,140.198298492162,140.7350311279297,276000,0.0,0.0
2024-03-25 00:00:00-04:00,140.34738894237853,143.18018585274163,140.31757130472434,142.09677124023438,316300,0.0,0.0
2024-03-26 00:00:00-04:00,141.9675509153129,143.43860997930688,141.75881228574428,142.33531188964844,314200,0.0,0.0
2024-03-27 00:00:00-04:00,142.80247150876573,144.2735305357622,142.80247150876573,143.7864990234375,218200,0.0,0.0
2024-03-28 00:00:00-04:00,143.945540951079,144.47233943976093,142.78259241318673,143.02114868164062,247800,0.0,0.0
2024-04-01 00:00:00-04:00,142.92174391811358,142.92174391811358,141.26182972526175,141.43080139160156,204400,0.0,0.0
2024-04-02 00:00:00-04:00,140.9835231702473,140.9835231702473,139.54228174591515,139.7808380126953,202600,0.0,0.0
2024-04-03 00:00:00-04:00,139.82058876487002,140.33745308904818,139.02541638151556,140.02932739257812,258700,0.0,0.0
2024-04-04 00:00:00-04:00,140.97359224374372,141.88803520404474,140.11878455984134,140.89407348632812,403600,0.0,0.0
2024-04-05 00:00:00-04:00,140.5263137798121,141.89797064938958,140.09890235065475,140.8741912841797,288300,0.0,0.0
2024-04-08 00:00:00-04:00,140.81454394404523,141.52026338290054,139.54227425614224,139.6615447998047,312500,0.0,0.0
2024-04-09 00:00:00-04:00,139.57208968140762,140.24799147364183,138.51849278467415,139.46275329589844,242600,0.0,0.0
2024-04-10 00:00:00-04:00,138.1407959531684,139.3733139491237,137.61399745354973,138.55825805664062,200700,0.0,0.0
2024-04-11 00:00:00-04:00,138.41910644626898,139.19439539010241,137.6139998635691,138.28990173339844,265300,0.0,0.0
2024-04-12 00:00:00-04:00,137.33569564180434,138.11098460738364,135.139048628214,136.37155151367188,299200,0.0,0.0
2024-04-15 00:00:00-04:00,137.77303698540868,138.96578803659222,136.99774804380675,137.36550903320312,319600,0.0,0.0
2024-04-16 00:00:00-04:00,136.95797094638152,138.54831567471223,136.53057471105032,137.75314331054688,281700,0.0,0.0
2024-04-17 00:00:00-04:00,138.04139778678876,138.63776567239776,137.51459932950783,137.5642852783203,565400,0.0,0.0
2024-04-18 00:00:00-04:00,137.5543658585281,138.5980287284686,137.3853941811705,138.27001953125,246600,0.0,0.0
2024-04-19 00:00:00-04:00,138.22031863210765,139.0751263444155,137.93207639771842,138.49862670898438,276600,0.0,0.0
2024-04-22 00:00:00-04:00,138.707347331054,140.29767682566305,138.40915581123645,139.4727020263672,298800,0.0,0.0
2024-04-23 00:00:00-04:00,138.9260310635908,140.30763722000358,138.67754063857663,139.30372619628906,417200,0.0,0.0
2024-04-24 00:00:00-04:00,139.51308098573696,140.4601120973227,139.20405122196024,139.57289123535156,559200,0.41,0.0
2024-04-25 00:00:00-04:00,139.4034204661795,140.80902214320577,138.48629450127524,139.7423553466797,694400,0.0,0.0
2024-04-26 00:00:00-04:00,141.55667304534362,148.0463432138729,141.45697916296402,142.8825225830078,489500,0.0,0.0
2024-04-29 00:00:00-04:00,144.44761378219465,147.55788343553544,143.9192696676214,145.92300415039062,676700,0.0,0.0
2024-04-30 00:00:00-04:00,145.28501503415882,145.6438917469066,143.61025197095168,143.92926025390625,585100,0.0,0.0
2024-05-01 00:00:00-04:00,144.5373503806833,146.7504208139929,144.12862673958753,144.92613220214844,359600,0.0,0.0
2024-05-02 00:00:00-04:00,145.30494287865122,146.27191582924283,144.83640896604902,145.46444702148438,356500,0.0,0.0
2024-05-03 00:00:00-04:00,146.65072048946053,146.67066230821584,144.38780321198533,146.35165405273438,303300,0.0,0.0
2024-05-06 00:00:00-04:00,147.29868913779862,148.6145754110667,146.70057145907325,148.57469177246094,260200,0.0,0.0
2024-05-07 00:00:00-04:00,147.8569555884079,149.91052188083276,147.8569555884079,149.25257873535156,392900,0.0,0.0
2024-05-08 00:00:00-04:00,149.25257756017209,150.39898119248133,149.0133213606578,150.31922912597656,223500,0.0,0.0
2024-05-09 00:00:00-04:00,150.5285822355886,151.25629893694287,148.165986176678,148.6145782470703,299100,0.0,0.0
2024-05-10 00:00:00-04:00,148.4849836108254,148.5348305559269,147.6276678729961,148.02642822265625,186300,0.0,0.0
2024-05-13 00:00:00-04:00,148.06629889141664,149.01333001806046,146.4015143356812,147.40835571289062,167500,0.0,0.0
2024-05-14 00:00:00-04:00,147.8370080007694,147.84697130459045,147.00959744909557,147.43824768066406,137600,0.0,0.0
2024-05-15 00:00:00-04:00,147.49807537859303,147.87687867451123,146.31178812637165,146.8201904296875,211100,0.0,0.0
2024-05-16 00:00:00-04:00,146.9099087828224,147.43825291596562,145.97284101123967,147.07937622070312,235500,0.0,0.0
2024-05-17 00:00:00-04:00,147.38841506196437,147.70740810497492,146.67066170125221,147.20896911621094,169500,0.0,0.0
2024-05-20 00:00:00-04:00,147.12922164935813,147.9466689178225,146.58093570235778,147.70741271972656,163400,0.0,0.0
2024-05-21 00:00:00-04:00,147.47813401612035,148.21581400229582,146.6307816301526,148.1260986328125,280400,0.0,0.0
2024-05-22 00:00:00-04:00,147.6077318095901,148.36535360869058,147.00959892898635,148.32546997070312,283300,0.0,0.0
2024-05-23 00:00:00-04:00,148.19588733515525,148.48497526264765,147.09931544918177,147.25881958007812,171700,0.0,0.0
2024-05-24 00:00:00-04:00,148.01645212839477,148.3653655386614,146.89995355338525,147.62767028808594,162300,0.0,0.0
2024-05-28 00:00:00-04:00,147.1591310966499,147.31863523340053,145.3647627972364,146.25198364257812,318400,0.0,0.0
2024-05-29 00:00:00-04:00,145.1952861934159,146.24201121911202,144.05884579124216,144.3878173828125,229700,0.0,0.0
2024-05-30 00:00:00-04:00,144.67692021470097,146.52113553086906,144.54732119709345,145.6837615966797,328100,0.0,0.0
2024-05-31 00:00:00-04:00,145.63390148964183,147.36847466326827,145.46443405716724,147.22891235351562,358900,0.0,0.0
2024-06-03 00:00:00-04:00,148.0363836011689,148.0363836011689,145.82331321528963,147.69744873046875,266200,0.0,0.0
2024-06-04 00:00:00-04:00,147.1890333089359,147.92672851844932,146.24200223383653,147.72735595703125,287900,0.0,0.0
2024-06-05 00:00:00-04:00,147.2588183615736,147.73731553915215,146.62081705441852,147.45819091796875,229200,0.0,0.0
2024-06-06 00:00:00-04:00,147.54790594962546,147.54790594962546,144.94605378506213,145.5043182373047,197600,0.0,0.0
2024-06-07 00:00:00-04:00,145.3149106909298,145.87315993857396,144.99590242876104,145.09559631347656,179100,0.0,0.0
2024-06-10 00:00:00-04:00,144.3778457088159,145.354781910964,143.54047182126038,145.13546752929688,125800,0.0,0.0
2024-06-11 00:00:00-04:00,144.45759149306033,145.28500204042714,143.89934225896968,145.04574584960938,147700,0.0,0.0
2024-06-12 00:00:00-04:00,145.78344898590225,145.85322253839615,143.62022548016512,145.37472534179688,221300,0.0,0.0
2024-06-13 00:00:00-04:00,145.43453558997783,146.07253692249407,144.56725656905073,145.37472534179688,232400,0.0,0.0
2024-06-14 00:00:00-04:00,144.6370305846701,144.92613373333927,143.23142890331042,144.298095703125,141500,0.0,0.0
2024-06-17 00:00:00-04:00,144.41772027881737,146.22206714105678,144.1186690285086,145.8731689453125,303800,0.0,0.0
2024-06-18 00:00:00-04:00,146.02268932642352,147.22891843357453,146.01272602215505,146.23204040527344,219900,0.0,0.0
2024-06-20 00:00:00-04:00,146.20213450852987,147.06941352099912,145.21521978971379,145.3547821044922,199900,0.0,0.0
2024-06-21 00:00:00-04:00,145.4145891343614,146.68062845471943,144.8563398876007,146.39154052734375,444100,0.0,0.0
2024-06-24 00:00:00-04:00,146.76038665315184,147.7672280001954,146.212100687474,146.26194763183594,182900,0.0,0.0
2024-06-25 00:00:00-04:00,146.33171256897103,146.34169108394693,144.04886867866534,144.40774536132812,194500,0.0,0.0
2024-06-26 00:00:00-04:00,143.79965999796775,144.337967456873,142.51369399487896,143.2613525390625,192400,0.0,0.0
2024-06-27 00:00:00-04:00,143.42083740234375,143.4308159177873,141.8258416799914,143.42083740234375,377300,0.0,0.0
2024-06-28 00:00:00-04:00,143.3311207879704,143.86944343810163,139.6526384529625,140.37039184570312,435100,0.0,0.0
2024-07-01 00:00:00-04:00,140.93862822602907,141.03830690762626,137.95795728218428,138.10748291015625,306400,0.0,0.0
2024-07-02 00:00:00-04:00,138.04766592148553,140.06136380975897,137.3299125199455,139.961669921875,259400,0.0,0.0
2024-07-03 00:00:00-04:00,140.44017889685466,140.9585445099537,140.1311491475818,140.77911376953125,143300,0.0,0.0
2024-07-05 00:00:00-04:00,140.5498441118768,140.99843619969914,139.29376801259173,140.46011352539062,207000,0.0,0.0
2024-07-08 00:00:00-04:00,141.20776910507726,142.0551215284798,141.0582434826659,141.06820678710938,249300,0.0,0.0
2024-07-09 00:00:00-04:00,140.42024578202572,140.82896944208156,139.31371051404057,139.60279846191406,238400,0.0,0.0
2024-07-10 00:00:00-04:00,140.31058476080074,141.18784230751322,140.1311540141469,140.84889221191406,142000,0.0,0.0
2024-07-11 00:00:00-04:00,140.75917200161098,142.85262190754506,140.31057993923974,141.64639282226562,244500,0.0,0.0
2024-07-12 00:00:00-04:00,142.9622867672307,145.03579496508434,142.9622867672307,144.1385955810547,263900,0.0,0.0
2024-07-15 00:00:00-04:00,144.30805785450596,145.23516233032703,142.69312031674534,142.98220825195312,319900,0.0,0.0
2024-07-16 00:00:00-04:00,143.40091345782525,144.846383586894,143.40091345782525,144.1086883544922,178800,0.0,0.0
2024-07-17 00:00:00-04:00,143.88936455055946,145.31490797738553,143.88936455055946,144.40774536132812,242300,0.0,0.0
2024-07-18 00:00:00-04:00,144.15853397990205,146.79029139718477,144.14857067551617,145.8233184814453,434200,0.0,0.0
2024-07-19 00:00:00-04:00,146.13233960327463,146.13233960327463,144.20837240104476,145.484375,251200,0.0,0.0
2024-07-22 00:00:00-04:00,145.5342333796423,147.09932402322838,144.79653813961164,146.73048400878906,235700,0.0,0.0
2024-07-23 00:00:00-04:00,147.40834928743737,148.04635061758063,145.21522066576688,145.5840606689453,234500,0.0,0.0
2024-07-24 00:00:00-04:00,145.61398500006206,146.1722342778631,143.45074623185494,143.69000244140625,250600,0.0,0.0
2024-07-25 00:00:00-04:00,142.8300018310547,144.0500030517578,141.22000122070312,141.49000549316406,558100,0.45,0.0
2024-07-26 00:00:00-04:00,143.1300048828125,151.2899932861328,142.35000610351562,146.66000366210938,562800,0.0,0.0
